Left_RPM Right_RPM angle(radians)_at_which_this_action_should_be_applied time_at_which_this_action_should_be_applied
800 800 0
900 780 5 0 0.0 1
1000 740 0 5 5.689773361501515 1
1200 740 5 5 6.283185307179586 1
1500 660 10 5 0.0 1
1800 560 5 10 5.689773361501515 1
2220 560 10 10 6.283185307179586 1
2520 640 5 10 0.0 1
2700 760 5 5 0.5934119456780721 1
2880 880 5 5 0.5934119456780721 1
3060 1000 5 5 0.5934119456780721 1
3120 1080 0 5 0.5934119456780721 1
3180 1160 5 0 1.1868238913561442 1
3360 1280 5 5 0.5934119456780721 1
3540 1400 5 5 0.5934119456780721 1
3720 1520 5 5 0.5934119456780721 1
3900 1640 5 5 0.5934119456780721 1
4080 1760 5 5 0.5934119456780721 1
4280 2000 5 10 0.5934119456780721 1
4340 2080 5 0 1.1868238913561442 1
4520 2200 5 5 0.5934119456780721 1
4720 2440 5 10 0.5934119456780721 1
4780 2520 5 0 1.1868238913561442 1
4960 2640 5 5 0.5934119456780721 1
5140 2760 5 5 0.5934119456780721 1
5320 2880 5 5 0.5934119456780721 1
5500 3000 5 5 0.5934119456780721 1
5700 3240 5 10 0.5934119456780721 1
5760 3320 5 0 1.1868238913561442 1
5940 3440 5 5 0.5934119456780721 1
6120 3560 5 5 0.5934119456780721 1
6300 3680 5 5 0.5934119456780721 1
6480 3800 5 5 0.5934119456780721 1
6680 4040 5 10 0.5934119456780721 1
6760 4240 5 5 1.1868238913561442 1
6840 4440 5 5 1.1868238913561442 1
6920 4640 5 5 1.1868238913561442 1
7000 4840 5 5 1.1868238913561442 1
7080 5040 5 5 1.1868238913561442 1
7160 5240 5 5 1.1868238913561442 1
7240 5440 5 5 1.1868238913561442 1
7320 5640 5 5 1.1868238913561442 1
7400 5840 5 5 1.1868238913561442 1
7480 6040 5 5 1.1868238913561442 1
7560 6240 5 5 1.1868238913561442 1
7640 6440 5 5 1.1868238913561442 1
7720 6640 5 5 1.1868238913561442 1
7800 6840 5 5 1.1868238913561442 1
7880 7040 5 5 1.1868238913561442 1
7960 7240 5 5 1.1868238913561442 1
8040 7440 5 5 1.1868238913561442 1
8120 7640 5 5 1.1868238913561442 1
8200 7840 5 5 1.1868238913561442 1
8280 8040 5 5 1.1868238913561442 1
8340 8120 5 0 1.1868238913561442 1
8540 8360 5 10 0.5934119456780721 1
8620 8560 5 5 1.1868238913561442 1
8680 8640 5 0 1.1868238913561442 1
8880 8880 5 10 0.5934119456780721 1
8940 8960 5 0 1.1868238913561442 1